{ 
 s_m_m2io_version
 :::
 2.0.0 
} 

f_m_ct { 
 s_m_title
 b_sd_chiral_flag
 s_sd_ID
 s_sd_PRIMARY\_SOM
 s_sd_Citation
 s_sd_DOI
 i_sd_New\_Or\_Updated\_From\_Original\_Merck\_Dataset
 s_ff_OPLSVersion
 i_m_ct_format
 :::
 dibenzylfluorescein 
  0
  dibenzylfluorescein 
  "16 33" 
  "Stresser et al.,Drug Metab. Disp.,30,845,2002
Donato et al.,Drug Metab. Disp.32,699,2004" 
  "10.1124/dmd.30.7.845
10.1124/dmd.32.7.699" 
  1
  OPLS4 
  2
 m_atom[63] { 
  # First column is atom index #
  i_m_mmod_type
  r_m_x_coord
  r_m_y_coord
  r_m_z_coord
  i_m_residue_number
  i_m_color
  r_m_charge1
  r_m_charge2
  i_m_atomic_number
  s_m_color_rgb
  i_m_Hcount
  :::
  1 2 1.997589 1.288105 -0.457544 900 2 -0.11905 -0.11905 6 A0A0A0  0
  2 2 0.842254 2.179345 -0.541419 900 2 -0.07622 -0.07622 6 A0A0A0  1
  3 2 -0.218134 1.891963 -1.332599 900 2 -0.20212 -0.20212 6 A0A0A0  1
  4 2 -0.304251 0.677788 -2.165597 900 2 0.44947 0.44947 6 A0A0A0  0
  5 15 -1.258940 0.431220 -2.894860 900 70 -0.46267 -0.46267 8 FF2F2F  0
  6 2 0.859142 -0.211689 -2.044122 900 2 -0.30798 -0.30798 6 A0A0A0  1
  7 2 1.920689 0.066826 -1.257050 900 2 0.20825 0.20825 6 A0A0A0  0
  8 16 2.903776 -0.871043 -1.276459 900 70 -0.22067 -0.22067 8 FF2F2F  0
  9 2 4.063667 -0.622774 -0.566296 900 2 0.19629 0.19629 6 A0A0A0  0
  10 2 4.225041 0.524785 0.227824 900 2 -0.18153 -0.18153 6 A0A0A0  0
  11 2 3.113926 1.512386 0.279285 900 2 0.17803 0.17803 6 A0A0A0  0
  12 2 3.262774 2.759137 1.083536 900 2 -0.05483 -0.05483 6 A0A0A0  0
  13 2 5.083411 -1.560876 -0.688160 900 2 -0.22894 -0.22894 6 A0A0A0  1
  14 2 6.302628 -1.363856 -0.027160 900 2 0.20492 0.20492 6 A0A0A0  0
  15 16 7.383318 -2.216033 -0.107420 900 70 -0.35828 -0.35828 8 FF2F2F  0
  16 3 7.294842 -3.380464 -0.928852 900 2 0.20591 0.20591 6 A0A0A0  2
  17 2 8.618460 -4.139158 -0.944926 900 2 -0.10514 -0.10514 6 A0A0A0  0
  18 2 6.464880 -0.228423 0.764456 900 2 -0.18324 -0.18324 6 A0A0A0  1
  19 2 5.442453 0.711952 0.894072 900 2 -0.03594 -0.03594 6 A0A0A0  1
  20 2 9.823513 -3.492153 -0.647119 900 2 -0.10209 -0.10209 6 A0A0A0  1
  21 2 11.022974 -4.198947 -0.679864 900 2 -0.13319 -0.13319 6 A0A0A0  1
  22 2 11.018210 -5.551331 -1.014740 900 2 -0.11622 -0.11622 6 A0A0A0  1
  23 2 9.824612 -6.202807 -1.317809 900 2 -0.13319 -0.13319 6 A0A0A0  1
  24 2 8.624910 -5.495886 -1.284823 900 2 -0.10209 -0.10209 6 A0A0A0  1
  25 2 3.571049 4.035524 0.536199 900 2 -0.25352 -0.25352 6 A0A0A0  0
  26 2 3.622902 5.142223 1.401722 900 2 -0.08008 -0.08008 6 A0A0A0  1
  27 2 3.420952 4.997596 2.772034 900 2 -0.13803 -0.13803 6 A0A0A0  1
  28 2 3.156338 3.741927 3.306702 900 2 -0.10257 -0.10257 6 A0A0A0  1
  29 2 3.078045 2.635147 2.466718 900 2 -0.12956 -0.12956 6 A0A0A0  1
  30 2 3.831870 4.300946 -0.926331 900 2 0.61876 0.61876 6 A0A0A0  0
  31 15 3.735775 5.416729 -1.444613 900 70 -0.41330 -0.41330 8 FF2F2F  0
  32 16 4.295236 3.225110 -1.584256 900 70 -0.32316 -0.32316 8 FF2F2F  0
  33 3 4.578438 3.266503 -2.972610 900 2 0.17080 0.17080 6 A0A0A0  2
  34 2 4.846735 1.850169 -3.449351 900 2 -0.10692 -0.10692 6 A0A0A0  0
  35 2 3.841092 1.131448 -4.100101 900 2 -0.10399 -0.10399 6 A0A0A0  1
  36 2 4.082620 -0.174561 -4.518470 900 2 -0.13328 -0.13328 6 A0A0A0  1
  37 2 5.327390 -0.756185 -4.284181 900 2 -0.11716 -0.11716 6 A0A0A0  1
  38 2 6.332471 -0.044880 -3.631199 900 2 -0.13328 -0.13328 6 A0A0A0  1
  39 2 6.090957 1.260790 -3.211404 900 2 -0.10399 -0.10399 6 A0A0A0  1
  40 41 0.826557 3.091975 0.040138 900 21 0.14480 0.14480 1 FFFFFF  0
  41 41 -1.047728 2.580756 -1.361440 900 21 0.15054 0.15054 1 FFFFFF  0
  42 41 0.862337 -1.127201 -2.611635 900 21 0.16466 0.16466 1 FFFFFF  0
  43 41 4.909307 -2.416463 -1.317758 900 21 0.15472 0.15472 1 FFFFFF  0
  44 41 7.050406 -3.107570 -1.957234 900 21 0.04539 0.04539 1 FFFFFF  0
  45 41 6.507868 -4.035366 -0.548929 900 21 0.04539 0.04539 1 FFFFFF  0
  46 41 7.405022 -0.075387 1.272202 900 21 0.15210 0.15210 1 FFFFFF  0
  47 41 5.611999 1.592030 1.498311 900 21 0.14618 0.14618 1 FFFFFF  0
  48 41 9.830781 -2.442920 -0.386926 900 21 0.13409 0.13409 1 FFFFFF  0
  49 41 11.952331 -3.699956 -0.445520 900 21 0.13344 0.13344 1 FFFFFF  0
  50 41 11.949241 -6.099620 -1.039347 900 21 0.13182 0.13182 1 FFFFFF  0
  51 41 9.830388 -7.251904 -1.577085 900 21 0.13344 0.13344 1 FFFFFF  0
  52 41 7.702735 -6.006835 -1.522267 900 21 0.13409 0.13409 1 FFFFFF  0
  53 41 3.835399 6.133173 1.019164 900 21 0.15454 0.15454 1 FFFFFF  0
  54 41 3.473801 5.861601 3.419329 900 21 0.14148 0.14148 1 FFFFFF  0
  55 41 3.002813 3.626230 4.369991 900 21 0.14053 0.14053 1 FFFFFF  0
  56 41 2.854237 1.667530 2.894890 900 21 0.14637 0.14637 1 FFFFFF  0
  57 41 5.448347 3.894721 -3.170849 900 21 0.05452 0.05452 1 FFFFFF  0
  58 41 3.743241 3.692951 -3.532162 900 21 0.05452 0.05452 1 FFFFFF  0
  59 41 2.869228 1.574067 -4.268197 900 21 0.13424 0.13424 1 FFFFFF  0
  60 41 3.303258 -0.734979 -5.014640 900 21 0.13339 0.13339 1 FFFFFF  0
  61 41 5.511831 -1.770734 -4.606152 900 21 0.13190 0.13190 1 FFFFFF  0
  62 41 7.290976 -0.505819 -3.440506 900 21 0.13339 0.13339 1 FFFFFF  0
  63 41 6.862994 1.807391 -2.689117 900 21 0.13424 0.13424 1 FFFFFF  0
  :::
 } 
 m_bond[68] { 
  # First column is bond index #
  i_m_from
  i_m_to
  i_m_order
  :::
  1 1 2 1
  2 1 7 1
  3 1 11 2
  4 2 3 2
  5 2 40 1
  6 3 4 1
  7 3 41 1
  8 4 5 2
  9 4 6 1
  10 6 7 2
  11 6 42 1
  12 7 8 1
  13 8 9 1
  14 9 10 1
  15 9 13 2
  16 10 11 1
  17 10 19 2
  18 11 12 1
  19 12 25 1
  20 12 29 2
  21 13 14 1
  22 13 43 1
  23 14 15 1
  24 14 18 2
  25 15 16 1
  26 16 17 1
  27 16 44 1
  28 16 45 1
  29 17 20 1
  30 17 24 2
  31 18 19 1
  32 18 46 1
  33 19 47 1
  34 20 21 2
  35 20 48 1
  36 21 22 1
  37 21 49 1
  38 22 23 2
  39 22 50 1
  40 23 24 1
  41 23 51 1
  42 24 52 1
  43 25 26 2
  44 25 30 1
  45 26 27 1
  46 26 53 1
  47 27 28 2
  48 27 54 1
  49 28 29 1
  50 28 55 1
  51 29 56 1
  52 30 31 2
  53 30 32 1
  54 32 33 1
  55 33 34 1
  56 33 57 1
  57 33 58 1
  58 34 35 1
  59 34 39 2
  60 35 36 2
  61 35 59 1
  62 36 37 1
  63 36 60 1
  64 37 38 2
  65 37 61 1
  66 38 39 1
  67 38 62 1
  68 39 63 1
  :::
 } 
} 

